# humidity about 5 cm above the surface
# measured on a profile across a valley
# x [m]  humidity [%]  error [%]
0.000000000000000000e+00 2.460000000000000142e+01 1.000000000000000000e+00
5.000000000000000000e+01 2.939999999999999858e+01 1.000000000000000000e+00
1.000000000000000000e+02 3.239999999999999858e+01 1.000000000000000000e+00
1.500000000000000000e+02 3.529999999999999716e+01 1.000000000000000000e+00
2.000000000000000000e+02 3.839999999999999858e+01 1.000000000000000000e+00
2.500000000000000000e+02 4.000000000000000000e+01 1.000000000000000000e+00
3.000000000000000000e+02 4.120000000000000284e+01 1.000000000000000000e+00
3.500000000000000000e+02 4.239999999999999858e+01 1.000000000000000000e+00
4.000000000000000000e+02 4.260000000000000142e+01 1.000000000000000000e+00
4.500000000000000000e+02 4.270000000000000284e+01 1.000000000000000000e+00
5.000000000000000000e+02 4.250000000000000000e+01 1.000000000000000000e+00
5.500000000000000000e+02 4.110000000000000142e+01 1.000000000000000000e+00
6.000000000000000000e+02 4.060000000000000142e+01 1.000000000000000000e+00
6.500000000000000000e+02 3.889999999999999858e+01 1.000000000000000000e+00
7.000000000000000000e+02 3.739999999999999858e+01 1.000000000000000000e+00
7.500000000000000000e+02 3.650000000000000000e+01 1.000000000000000000e+00
8.000000000000000000e+02 3.420000000000000284e+01 1.000000000000000000e+00
8.500000000000000000e+02 3.310000000000000142e+01 1.000000000000000000e+00
9.000000000000000000e+02 3.050000000000000000e+01 1.000000000000000000e+00
9.500000000000000000e+02 2.889999999999999858e+01 1.000000000000000000e+00
1.000000000000000000e+03 2.769999999999999929e+01 1.000000000000000000e+00
